Tiempo(s)	Voltaje(V)
0.000000000000000000e+00	2.356827676703687757e-01
1.000000000000000021e-03	2.781477099924813956e-01
2.000000000000000042e-03	2.849034962709993124e-01
3.000000000000000062e-03	1.877488555037416518e-01
4.000000000000000083e-03	6.003232442890293896e-02
5.000000000000000104e-03	2.340742471278645098e-01
6.000000000000000125e-03	2.758957812329754233e-01
7.000000000000000146e-03	2.800779346434865147e-01
8.000000000000000167e-03	1.848535185272339731e-01
8.999999999999999320e-03	5.842380388639867306e-02
1.000000000000000021e-02	2.321440224768593907e-01
1.099999999999999936e-02	2.765391894499771297e-01
1.200000000000000025e-02	2.807213428604882210e-01
1.299999999999999940e-02	1.871054472867399454e-01
1.400000000000000029e-02	6.035402853740379214e-02
1.499999999999999944e-02	2.360044717788696289e-01
1.600000000000000033e-02	2.800779346434865147e-01
1.700000000000000122e-02	2.829732716199941933e-01
1.799999999999999864e-02	1.890356719377450645e-01
1.899999999999999953e-02	6.099743675440549850e-02
2.000000000000000042e-02	2.347176553448662162e-01
2.100000000000000130e-02	2.784694141009822488e-01
2.199999999999999872e-02	2.800779346434865147e-01
2.299999999999999961e-02	1.864620390697382390e-01
2.400000000000000050e-02	5.842380388639867306e-02
2.500000000000000139e-02	2.318223183683585376e-01
2.599999999999999881e-02	2.778260058839805424e-01
2.699999999999999969e-02	2.794345264264848083e-01
2.800000000000000058e-02	1.871054472867399454e-01
2.900000000000000147e-02	6.003232442890293896e-02
2.999999999999999889e-02	2.337525430193636566e-01
3.099999999999999978e-02	2.794345264264848083e-01
3.200000000000000067e-02	2.823298634029924870e-01
3.300000000000000155e-02	1.883922637207433581e-01
3.400000000000000244e-02	6.131914086290635169e-02
3.500000000000000333e-02	2.347176553448662162e-01
3.599999999999999728e-02	2.791128223179839551e-01
3.699999999999999817e-02	2.803996387519873679e-01
3.799999999999999906e-02	1.874271513952407986e-01
3.899999999999999994e-02	5.938891621190123260e-02
4.000000000000000083e-02	2.327874306938610971e-01
4.100000000000000172e-02	2.762174853414762765e-01
4.200000000000000261e-02	2.775043017754796892e-01
4.299999999999999656e-02	1.854969267442356795e-01
4.399999999999999745e-02	5.842380388639867306e-02
4.499999999999999833e-02	2.331091348023619503e-01
4.599999999999999922e-02	2.778260058839805424e-01
4.700000000000000011e-02	2.794345264264848083e-01
4.800000000000000100e-02	1.887139678292442113e-01
4.900000000000000189e-02	6.131914086290635169e-02
5.000000000000000278e-02	2.350393594533670694e-01
5.099999999999999672e-02	2.807213428604882210e-01
5.199999999999999761e-02	2.813647510774899274e-01
5.299999999999999850e-02	1.883922637207433581e-01
5.399999999999999939e-02	6.099743675440549850e-02
5.500000000000000028e-02	2.343959512363653630e-01
5.600000000000000117e-02	2.765391894499771297e-01
5.700000000000000205e-02	2.775043017754796892e-01
5.800000000000000294e-02	1.851752226357348263e-01
5.899999999999999689e-02	5.842380388639867306e-02
5.999999999999999778e-02	2.321440224768593907e-01
6.099999999999999867e-02	2.775043017754796892e-01
6.199999999999999956e-02	2.787911182094831020e-01
6.300000000000000044e-02	1.874271513952407986e-01
6.400000000000000133e-02	6.035402853740379214e-02
6.500000000000000222e-02	2.353610635618679225e-01
6.600000000000000311e-02	2.810430469689890742e-01
6.700000000000000400e-02	2.810430469689890742e-01
6.800000000000000488e-02	1.890356719377450645e-01
6.900000000000000577e-02	6.099743675440549850e-02
7.000000000000000666e-02	2.360044717788696289e-01
7.099999999999999367e-02	2.787911182094831020e-01
7.199999999999999456e-02	2.797562305349856615e-01
7.299999999999999545e-02	1.861403349612373859e-01
7.399999999999999634e-02	6.099743675440549850e-02
7.499999999999999722e-02	2.360044717788696289e-01
7.599999999999999811e-02	2.765391894499771297e-01
7.699999999999999900e-02	2.781477099924813956e-01
7.799999999999999989e-02	1.871054472867399454e-01
7.900000000000000078e-02	7.000515179242938757e-02
8.000000000000000167e-02	2.411517375148832798e-01
8.100000000000000255e-02	2.800779346434865147e-01
8.200000000000000344e-02	2.813647510774899274e-01
8.300000000000000433e-02	1.887139678292442113e-01
8.400000000000000522e-02	8.222990791546180844e-02
8.500000000000000611e-02	2.446904827083926648e-01
8.599999999999999312e-02	2.791128223179839551e-01
8.699999999999999400e-02	2.800779346434865147e-01
8.799999999999999489e-02	1.867837431782390922e-01
8.899999999999999578e-02	8.962910241098143160e-02
8.999999999999999667e-02	2.427602580573875457e-01
9.099999999999999756e-02	2.781477099924813956e-01
9.199999999999999845e-02	2.781477099924813956e-01
9.299999999999999933e-02	1.842101103102322668e-01
9.400000000000000022e-02	9.670659279800020158e-02
9.500000000000000111e-02	2.456555950338952243e-01
9.600000000000000200e-02	2.852252003795001656e-01
9.700000000000000289e-02	2.810430469689890742e-01
9.800000000000000377e-02	1.864620390697382390e-01
9.900000000000000466e-02	1.041057872935198247e-01
1.000000000000000056e-01	2.482292279019020498e-01
1.010000000000000064e-01	2.958414359600283206e-01
1.019999999999999934e-01	2.829732716199941933e-01
1.029999999999999943e-01	1.854969267442356795e-01
1.039999999999999952e-01	1.047491955105215311e-01
1.049999999999999961e-01	2.466207073593977839e-01
1.059999999999999970e-01	3.013104058045428246e-01
1.069999999999999979e-01	2.794345264264848083e-01
1.079999999999999988e-01	1.832449979847297072e-01
1.089999999999999997e-01	1.047491955105215311e-01
1.100000000000000006e-01	2.453338909253943712e-01
1.110000000000000014e-01	3.080661920830607414e-01
1.120000000000000023e-01	2.807213428604882210e-01
1.130000000000000032e-01	1.854969267442356795e-01
1.140000000000000041e-01	1.082879407040309161e-01
1.150000000000000050e-01	2.485509320104029030e-01
1.160000000000000059e-01	3.145002742530778050e-01
1.170000000000000068e-01	2.823298634029924870e-01
1.179999999999999938e-01	1.861403349612373859e-01
1.189999999999999947e-01	1.089313489210326225e-01
1.199999999999999956e-01	2.475858196849003434e-01
1.209999999999999964e-01	3.157870906870812178e-01
1.219999999999999973e-01	2.813647510774899274e-01
1.229999999999999982e-01	1.826015897677280009e-01
1.239999999999999991e-01	1.063577160530257970e-01
1.250000000000000000e-01	2.456555950338952243e-01
1.260000000000000009e-01	3.161087947955820709e-01
1.270000000000000018e-01	2.800779346434865147e-01
1.280000000000000027e-01	1.838884062017314136e-01
1.290000000000000036e-01	1.073228283785283566e-01
1.300000000000000044e-01	2.475858196849003434e-01
1.310000000000000053e-01	3.199692440975923091e-01
1.320000000000000062e-01	2.826515675114933401e-01
1.330000000000000071e-01	1.864620390697382390e-01
1.340000000000000080e-01	1.102181653550360352e-01
1.350000000000000089e-01	2.485509320104029030e-01
1.360000000000000098e-01	3.202909482060931623e-01
1.370000000000000107e-01	2.823298634029924870e-01
1.380000000000000115e-01	1.848535185272339731e-01
1.390000000000000124e-01	1.070011242700275034e-01
1.400000000000000133e-01	2.456555950338952243e-01
1.409999999999999865e-01	3.173956112295854837e-01
1.419999999999999873e-01	2.800779346434865147e-01
1.429999999999999882e-01	1.829232938762288541e-01
1.439999999999999891e-01	1.070011242700275034e-01
1.449999999999999900e-01	2.466207073593977839e-01
1.459999999999999909e-01	3.196475399890914559e-01
1.469999999999999918e-01	2.820081592944916338e-01
1.479999999999999927e-01	1.858186308527365327e-01
1.489999999999999936e-01	1.108615735720377415e-01
1.499999999999999944e-01	2.488726361189037561e-01
1.509999999999999953e-01	3.218994687485974282e-01
1.519999999999999962e-01	2.832949757284950465e-01
1.529999999999999971e-01	1.864620390697382390e-01
1.539999999999999980e-01	1.092530530295334756e-01
1.549999999999999989e-01	2.475858196849003434e-01
1.559999999999999998e-01	3.196475399890914559e-01
1.570000000000000007e-01	2.800779346434865147e-01
1.580000000000000016e-01	1.829232938762288541e-01
1.590000000000000024e-01	1.066794201615266502e-01
1.600000000000000033e-01	2.466207073593977839e-01
1.610000000000000042e-01	3.196475399890914559e-01
1.620000000000000051e-01	2.816864551859907806e-01
1.630000000000000060e-01	1.851752226357348263e-01
1.640000000000000069e-01	1.098964612465351820e-01
1.650000000000000078e-01	2.498377484444063157e-01
1.660000000000000087e-01	3.222211728570982814e-01
1.670000000000000095e-01	2.842600880539976060e-01
1.680000000000000104e-01	1.861403349612373859e-01
1.690000000000000113e-01	1.105398694635368884e-01
1.700000000000000122e-01	2.479075237934011966e-01
1.710000000000000131e-01	3.202909482060931623e-01
1.719999999999999862e-01	2.816864551859907806e-01
1.729999999999999871e-01	1.842101103102322668e-01
1.739999999999999880e-01	1.066794201615266502e-01
1.749999999999999889e-01	2.462990032508969307e-01
1.759999999999999898e-01	3.183607235550880432e-01
1.769999999999999907e-01	2.800779346434865147e-01
1.779999999999999916e-01	1.864620390697382390e-01
1.789999999999999925e-01	1.082879407040309161e-01
1.799999999999999933e-01	2.479075237934011966e-01
1.809999999999999942e-01	3.215777646400965750e-01
1.819999999999999951e-01	2.829732716199941933e-01
1.829999999999999960e-01	1.903224883717484772e-01
1.839999999999999969e-01	1.108615735720377415e-01
1.849999999999999978e-01	2.495160443359054625e-01
1.859999999999999987e-01	3.218994687485974282e-01
1.869999999999999996e-01	2.791128223179839551e-01
1.880000000000000004e-01	1.906441924802493304e-01
1.890000000000000013e-01	1.082879407040309161e-01
1.900000000000000022e-01	2.456555950338952243e-01
1.910000000000000031e-01	3.190041317720897496e-01
1.920000000000000040e-01	2.739655565819703043e-01
1.930000000000000049e-01	1.900007842632476240e-01
1.940000000000000058e-01	1.073228283785283566e-01
1.950000000000000067e-01	2.469424114678986371e-01
1.960000000000000075e-01	3.209343564230948687e-01
1.970000000000000084e-01	2.749306689074728638e-01
1.980000000000000093e-01	1.938612335652578622e-01
1.990000000000000102e-01	1.105398694635368884e-01
2.000000000000000111e-01	2.488726361189037561e-01
2.010000000000000120e-01	3.231862851826008409e-01
2.020000000000000129e-01	2.749306689074728638e-01
2.030000000000000138e-01	1.938612335652578622e-01
2.039999999999999869e-01	1.079662365955300629e-01
2.049999999999999878e-01	2.475858196849003434e-01
2.059999999999999887e-01	3.209343564230948687e-01
2.069999999999999896e-01	2.704268113884609193e-01
2.079999999999999905e-01	1.916093048057518899e-01
2.089999999999999913e-01	1.063577160530257970e-01
2.099999999999999922e-01	2.459772991423960775e-01
2.109999999999999931e-01	3.215777646400965750e-01
2.119999999999999940e-01	2.713919237139634788e-01
2.129999999999999949e-01	1.932178253482561558e-01
2.139999999999999958e-01	1.089313489210326225e-01
2.149999999999999967e-01	2.495160443359054625e-01
2.159999999999999976e-01	3.241513975081034005e-01
2.169999999999999984e-01	2.739655565819703043e-01
2.179999999999999993e-01	1.945046417822595686e-01
2.190000000000000002e-01	1.092530530295334756e-01
2.200000000000000011e-01	2.479075237934011966e-01
2.210000000000000020e-01	3.225428769655991346e-01
2.220000000000000029e-01	2.713919237139634788e-01
2.230000000000000038e-01	1.919310089142527431e-01
2.240000000000000047e-01	1.060360119445249438e-01
2.250000000000000056e-01	2.453338909253943712e-01
2.260000000000000064e-01	3.206126523145940155e-01
2.270000000000000073e-01	2.704268113884609193e-01
2.280000000000000082e-01	1.925744171312544495e-01
2.290000000000000091e-01	1.082879407040309161e-01
2.300000000000000100e-01	2.479075237934011966e-01
2.310000000000000109e-01	3.231862851826008409e-01
2.320000000000000118e-01	2.736438524734694511e-01
2.330000000000000127e-01	1.948263458907604218e-01
2.340000000000000135e-01	1.095747571380343288e-01
2.349999999999999867e-01	2.485509320104029030e-01
2.359999999999999876e-01	3.228645810740999877e-01
2.369999999999999885e-01	2.726787401479668915e-01
2.379999999999999893e-01	1.932178253482561558e-01
2.389999999999999902e-01	1.066794201615266502e-01
2.399999999999999911e-01	2.450121868168935180e-01
2.409999999999999920e-01	3.196475399890914559e-01
2.419999999999999929e-01	2.691399949544575065e-01
2.429999999999999938e-01	1.909658965887501836e-01
2.439999999999999947e-01	1.070011242700275034e-01
2.449999999999999956e-01	2.462990032508969307e-01
2.459999999999999964e-01	3.222211728570982814e-01
2.469999999999999973e-01	2.713919237139634788e-01
2.479999999999999982e-01	1.938612335652578622e-01
2.489999999999999991e-01	1.095747571380343288e-01
2.500000000000000000e-01	2.488726361189037561e-01
2.510000000000000009e-01	3.238296933996025473e-01
2.520000000000000018e-01	2.730004442564677447e-01
2.530000000000000027e-01	1.945046417822595686e-01
2.540000000000000036e-01	1.079662365955300629e-01
2.550000000000000044e-01	2.479075237934011966e-01
2.560000000000000053e-01	3.209343564230948687e-01
2.570000000000000062e-01	2.691399949544575065e-01
2.580000000000000071e-01	1.912876006972510368e-01
2.590000000000000080e-01	1.095747571380343288e-01
2.600000000000000089e-01	2.472641155763994902e-01
2.610000000000000098e-01	3.212560605315957218e-01
2.620000000000000107e-01	2.704268113884609193e-01
2.630000000000000115e-01	1.925744171312544495e-01
2.640000000000000124e-01	1.198692886100616306e-01
2.650000000000000133e-01	2.527330854209139943e-01
2.660000000000000142e-01	3.235079892911016941e-01
2.670000000000000151e-01	2.736438524734694511e-01
2.680000000000000160e-01	1.945046417822595686e-01
2.690000000000000169e-01	1.327374529500957578e-01
2.700000000000000178e-01	2.540199018549174070e-01
2.710000000000000187e-01	3.222211728570982814e-01
2.720000000000000195e-01	2.710702196054626256e-01
2.730000000000000204e-01	1.916093048057518899e-01
2.740000000000000213e-01	1.407800556626170874e-01
2.750000000000000222e-01	2.524113813124131411e-01
2.760000000000000231e-01	3.177173153380863369e-01
2.770000000000000240e-01	2.707485154969617724e-01
2.780000000000000249e-01	1.932178253482561558e-01
2.790000000000000258e-01	1.507528830261435360e-01
2.800000000000000266e-01	2.553067182889208198e-01
2.810000000000000275e-01	3.103181208425667137e-01
2.819999999999999729e-01	2.723570360394660383e-01
2.829999999999999738e-01	1.951480499992612749e-01
2.839999999999999747e-01	1.584737816301640123e-01
2.849999999999999756e-01	2.565935347229242325e-01
2.859999999999999765e-01	2.929460989835206419e-01
2.869999999999999774e-01	2.720353319309651852e-01
2.879999999999999782e-01	1.922527130227535963e-01
2.889999999999999791e-01	1.594388939556665719e-01
2.899999999999999800e-01	2.543416059634182602e-01
2.909999999999999809e-01	2.707485154969617724e-01
2.919999999999999818e-01	2.694616990629583597e-01
2.929999999999999827e-01	1.916093048057518899e-01
2.939999999999999836e-01	1.607257103896699846e-01
2.949999999999999845e-01	2.549850141804199666e-01
2.959999999999999853e-01	2.582020552654284984e-01
2.969999999999999862e-01	2.720353319309651852e-01
2.979999999999999871e-01	1.948263458907604218e-01
2.989999999999999880e-01	1.658729761256836355e-01
2.999999999999999889e-01	2.569152388314250857e-01
3.009999999999999898e-01	2.504811566614080220e-01
3.019999999999999907e-01	2.733221483649685979e-01
3.029999999999999916e-01	1.941829376737587154e-01
3.039999999999999925e-01	1.636210473661776632e-01
3.049999999999999933e-01	2.559501265059225261e-01
3.059999999999999942e-01	2.408300334063824266e-01
3.069999999999999951e-01	2.697834031714592129e-01
3.079999999999999960e-01	1.906441924802493304e-01
3.089999999999999969e-01	1.626559350406751037e-01
3.099999999999999978e-01	2.543416059634182602e-01
3.109999999999999987e-01	2.372912882128730416e-01
3.119999999999999996e-01	2.704268113884609193e-01
3.130000000000000004e-01	1.932178253482561558e-01
3.140000000000000013e-01	1.655512720171827823e-01
3.150000000000000022e-01	2.572369429399259388e-01
3.160000000000000031e-01	2.382564005383756012e-01
3.170000000000000040e-01	2.726787401479668915e-01
3.180000000000000049e-01	1.951480499992612749e-01
3.190000000000000058e-01	1.658729761256836355e-01
3.200000000000000067e-01	2.565935347229242325e-01
3.210000000000000075e-01	2.360044717788696289e-01
3.220000000000000084e-01	2.717136278224643320e-01
3.230000000000000093e-01	1.928961212397553027e-01
3.240000000000000102e-01	1.626559350406751037e-01
3.250000000000000111e-01	2.543416059634182602e-01
3.260000000000000120e-01	2.324657265853602439e-01
3.270000000000000129e-01	2.704268113884609193e-01
3.280000000000000138e-01	1.925744171312544495e-01
3.290000000000000147e-01	1.639427514746785164e-01
3.300000000000000155e-01	2.559501265059225261e-01
3.310000000000000164e-01	2.347176553448662162e-01
3.320000000000000173e-01	2.736438524734694511e-01
3.330000000000000182e-01	1.954697541077621281e-01
3.340000000000000191e-01	1.668380884511861950e-01
3.350000000000000200e-01	2.565935347229242325e-01
3.360000000000000209e-01	2.353610635618679225e-01
3.370000000000000218e-01	2.730004442564677447e-01
3.380000000000000226e-01	1.925744171312544495e-01
3.390000000000000235e-01	1.639427514746785164e-01
3.400000000000000244e-01	2.543416059634182602e-01
3.410000000000000253e-01	2.321440224768593907e-01
3.420000000000000262e-01	2.707485154969617724e-01
3.430000000000000271e-01	1.922527130227535963e-01
3.439999999999999725e-01	1.639427514746785164e-01
3.449999999999999734e-01	2.556284223974216729e-01
3.459999999999999742e-01	2.340742471278645098e-01
3.469999999999999751e-01	2.720353319309651852e-01
3.479999999999999760e-01	1.951480499992612749e-01
3.489999999999999769e-01	1.661946802341844887e-01
3.499999999999999778e-01	2.585237593739293516e-01
3.509999999999999787e-01	2.356827676703687757e-01
3.519999999999999796e-01	2.730004442564677447e-01
3.529999999999999805e-01	1.945046417822595686e-01
3.539999999999999813e-01	1.652295679086819291e-01
3.549999999999999822e-01	2.559501265059225261e-01
3.559999999999999831e-01	2.331091348023619503e-01
3.569999999999999840e-01	2.697834031714592129e-01
3.579999999999999849e-01	1.922527130227535963e-01
3.589999999999999858e-01	1.636210473661776632e-01
3.599999999999999867e-01	2.543416059634182602e-01
3.609999999999999876e-01	2.331091348023619503e-01
3.619999999999999885e-01	2.704268113884609193e-01
3.629999999999999893e-01	1.951480499992612749e-01
3.639999999999999902e-01	1.661946802341844887e-01
3.649999999999999911e-01	2.572369429399259388e-01
3.659999999999999920e-01	2.353610635618679225e-01
3.669999999999999929e-01	2.704268113884609193e-01
3.679999999999999938e-01	1.973999787587672472e-01
3.689999999999999947e-01	1.661946802341844887e-01
3.699999999999999956e-01	2.569152388314250857e-01
3.709999999999999964e-01	2.305355019343551248e-01
3.719999999999999973e-01	2.656012497609481215e-01
3.729999999999999982e-01	1.961131623247638345e-01
3.739999999999999991e-01	1.636210473661776632e-01
3.750000000000000000e-01	2.543416059634182602e-01
3.760000000000000009e-01	2.231363074388355017e-01
3.770000000000000018e-01	2.617408004589378834e-01
3.780000000000000027e-01	1.990084993012715131e-01
3.790000000000000036e-01	1.645861596916802227e-01
3.800000000000000044e-01	2.562718306144233793e-01
3.810000000000000053e-01	2.186324499198235571e-01
3.820000000000000062e-01	2.620625045674387366e-01
3.830000000000000071e-01	2.025472444947808981e-01
3.840000000000000080e-01	1.681249048851896077e-01
3.850000000000000089e-01	2.572369429399259388e-01
3.860000000000000098e-01	2.109115513158030808e-01
3.870000000000000107e-01	2.585237593739293516e-01
3.880000000000000115e-01	2.012604280607774854e-01
3.890000000000000124e-01	1.645861596916802227e-01
3.900000000000000133e-01	2.540199018549174070e-01
3.910000000000000142e-01	2.025472444947808981e-01
3.920000000000000151e-01	2.562718306144233793e-01
3.930000000000000160e-01	2.002953157352749258e-01
3.940000000000000169e-01	1.652295679086819291e-01
3.950000000000000178e-01	2.549850141804199666e-01
3.960000000000000187e-01	2.002953157352749258e-01
3.970000000000000195e-01	2.569152388314250857e-01
3.980000000000000204e-01	2.035123568202834576e-01
3.990000000000000213e-01	1.674814966681879014e-01
4.000000000000000222e-01	2.572369429399259388e-01
4.010000000000000231e-01	1.999736116267740726e-01
4.020000000000000240e-01	2.585237593739293516e-01
4.030000000000000249e-01	2.025472444947808981e-01
4.040000000000000258e-01	1.661946802341844887e-01
4.050000000000000266e-01	2.553067182889208198e-01
4.060000000000000275e-01	1.964348664332646877e-01
4.069999999999999729e-01	2.549850141804199666e-01
4.079999999999999738e-01	2.009387239522766322e-01
4.089999999999999747e-01	1.639427514746785164e-01
4.099999999999999756e-01	2.546633100719191134e-01
4.109999999999999765e-01	1.961131623247638345e-01
4.119999999999999774e-01	2.559501265059225261e-01
4.129999999999999782e-01	2.022255403862800449e-01
4.139999999999999791e-01	1.671597925596870482e-01
4.149999999999999800e-01	2.575586470484267920e-01
4.159999999999999809e-01	1.973999787587672472e-01
4.169999999999999818e-01	2.578803511569276452e-01
4.179999999999999827e-01	2.035123568202834576e-01
4.189999999999999836e-01	1.665163843426853418e-01
4.199999999999999845e-01	2.562718306144233793e-01
4.209999999999999853e-01	1.961131623247638345e-01
4.219999999999999862e-01	2.546633100719191134e-01
4.229999999999999871e-01	1.999736116267740726e-01
4.239999999999999880e-01	1.639427514746785164e-01
4.249999999999999889e-01	2.533764936379157007e-01
4.259999999999999898e-01	1.941829376737587154e-01
4.269999999999999907e-01	2.546633100719191134e-01
4.279999999999999916e-01	2.006170198437757790e-01
4.289999999999999925e-01	1.658729761256836355e-01
4.299999999999999933e-01	2.572369429399259388e-01
4.309999999999999942e-01	1.967565705417655408e-01
4.319999999999999951e-01	2.582020552654284984e-01
4.329999999999999960e-01	2.044774691457860172e-01
4.339999999999999969e-01	1.674814966681879014e-01
4.349999999999999978e-01	2.578803511569276452e-01
4.359999999999999987e-01	1.970782746502663940e-01
4.369999999999999996e-01	2.569152388314250857e-01
4.380000000000000004e-01	2.015821321692783386e-01
4.390000000000000013e-01	1.649078638001810759e-01
4.400000000000000022e-01	2.562718306144233793e-01
4.410000000000000031e-01	1.945046417822595686e-01
4.420000000000000040e-01	2.543416059634182602e-01
4.430000000000000049e-01	2.012604280607774854e-01
4.440000000000000058e-01	1.674814966681879014e-01
4.450000000000000067e-01	2.610973922419361770e-01
4.460000000000000075e-01	1.967565705417655408e-01
4.470000000000000084e-01	2.572369429399259388e-01
4.480000000000000093e-01	2.041557650372851640e-01
4.490000000000000102e-01	1.771326199232134968e-01
4.500000000000000111e-01	2.684965867374558002e-01
4.510000000000000120e-01	1.977216828672681004e-01
4.520000000000000129e-01	2.575586470484267920e-01
4.530000000000000138e-01	2.031906527117826045e-01
4.540000000000000147e-01	1.851752226357348263e-01
4.550000000000000155e-01	2.707485154969617724e-01
4.560000000000000164e-01	1.954697541077621281e-01
4.570000000000000173e-01	2.543416059634182602e-01
4.580000000000000182e-01	1.996519075182732195e-01
4.590000000000000191e-01	1.935395294567570090e-01
4.600000000000000200e-01	2.723570360394660383e-01
4.610000000000000209e-01	2.051208773627877235e-01
4.620000000000000218e-01	2.562718306144233793e-01
4.630000000000000226e-01	2.012604280607774854e-01
4.640000000000000235e-01	2.044774691457860172e-01
4.650000000000000244e-01	2.771825976669788361e-01
4.660000000000000253e-01	2.469424114678986371e-01
4.670000000000000262e-01	2.588454634824302047e-01
4.680000000000000271e-01	2.025472444947808981e-01
4.689999999999999725e-01	2.096247348817996681e-01
4.699999999999999734e-01	2.771825976669788361e-01
4.709999999999999742e-01	3.116049372765701264e-01
4.719999999999999751e-01	2.559501265059225261e-01
4.729999999999999760e-01	1.996519075182732195e-01
4.739999999999999769e-01	2.096247348817996681e-01
4.749999999999999778e-01	2.752523730159737170e-01
4.759999999999999787e-01	3.894573315337765962e-01
4.769999999999999796e-01	2.565935347229242325e-01
4.779999999999999805e-01	1.999736116267740726e-01
4.789999999999999813e-01	2.138068882923107594e-01
4.799999999999999822e-01	2.784694141009822488e-01
4.809999999999999831e-01	4.566934902104549110e-01
4.819999999999999840e-01	2.585237593739293516e-01
4.829999999999999849e-01	2.022255403862800449e-01
4.839999999999999858e-01	2.167022252688184381e-01
4.849999999999999867e-01	2.794345264264848083e-01
4.859999999999999876e-01	5.007669530750717968e-01
4.869999999999999885e-01	2.572369429399259388e-01
4.879999999999999893e-01	1.999736116267740726e-01
4.889999999999999902e-01	2.144502965093124658e-01
4.899999999999999911e-01	2.762174853414762765e-01
4.909999999999999920e-01	5.255381694296374917e-01
4.919999999999999929e-01	2.546633100719191134e-01
4.929999999999999938e-01	1.986867951927706599e-01
4.939999999999999947e-01	2.144502965093124658e-01
4.949999999999999956e-01	2.765391894499771297e-01
4.959999999999999964e-01	5.435535995056852698e-01
4.969999999999999973e-01	2.578803511569276452e-01
4.979999999999999982e-01	2.009387239522766322e-01
4.989999999999999991e-01	2.176673375943209976e-01
5.000000000000000000e-01	2.800779346434865147e-01
5.010000000000000009e-01	5.551349474117159843e-01
5.020000000000000018e-01	2.585237593739293516e-01
5.030000000000000027e-01	2.009387239522766322e-01
5.040000000000000036e-01	2.163805211603175849e-01
5.050000000000000044e-01	2.781477099924813956e-01
5.060000000000000053e-01	5.577085802797228098e-01
5.070000000000000062e-01	2.546633100719191134e-01
5.080000000000000071e-01	1.977216828672681004e-01
5.090000000000000080e-01	2.134851841838099062e-01
5.100000000000000089e-01	2.768608935584779829e-01
5.110000000000000098e-01	5.609256213647313416e-01
5.120000000000000107e-01	2.569152388314250857e-01
5.130000000000000115e-01	1.993302034097723663e-01
5.140000000000000124e-01	2.163805211603175849e-01
5.150000000000000133e-01	2.787911182094831020e-01
5.160000000000000142e-01	5.660728871007449925e-01
5.170000000000000151e-01	2.585237593739293516e-01
5.180000000000000160e-01	2.006170198437757790e-01
5.190000000000000169e-01	2.170239293773192912e-01
5.200000000000000178e-01	2.784694141009822488e-01
5.210000000000000187e-01	5.641426624497398734e-01
5.220000000000000195e-01	2.556284223974216729e-01
5.230000000000000204e-01	1.977216828672681004e-01
5.240000000000000213e-01	2.131634800753090531e-01
5.250000000000000222e-01	2.755740771244745702e-01
5.260000000000000231e-01	5.631775501242373139e-01
5.270000000000000240e-01	2.543416059634182602e-01
5.280000000000000249e-01	1.986867951927706599e-01
5.290000000000000258e-01	2.150937047263141721e-01
5.300000000000000266e-01	2.771825976669788361e-01
5.310000000000000275e-01	5.657511829922441393e-01
5.320000000000000284e-01	2.582020552654284984e-01
5.330000000000000293e-01	2.009387239522766322e-01
5.340000000000000302e-01	2.173456334858201444e-01
5.350000000000000311e-01	2.784694141009822488e-01
5.360000000000000320e-01	5.654294788837432861e-01
5.370000000000000329e-01	2.569152388314250857e-01
5.380000000000000338e-01	1.996519075182732195e-01
5.390000000000000346e-01	2.144502965093124658e-01
5.400000000000000355e-01	2.752523730159737170e-01
5.410000000000000364e-01	5.618907336902339011e-01
5.420000000000000373e-01	2.536981977464165539e-01
5.430000000000000382e-01	1.977216828672681004e-01
5.440000000000000391e-01	2.141285924008116126e-01
5.450000000000000400e-01	2.768608935584779829e-01
5.460000000000000409e-01	5.634992542327381670e-01
5.470000000000000417e-01	2.562718306144233793e-01
5.480000000000000426e-01	2.022255403862800449e-01
5.490000000000000435e-01	2.167022252688184381e-01
5.500000000000000444e-01	2.787911182094831020e-01
5.510000000000000453e-01	5.654294788837432861e-01
5.520000000000000462e-01	2.553067182889208198e-01
5.530000000000000471e-01	2.028689486032817513e-01
5.540000000000000480e-01	2.150937047263141721e-01
5.550000000000000488e-01	2.775043017754796892e-01
5.560000000000000497e-01	5.667162953177466989e-01
5.570000000000000506e-01	2.495160443359054625e-01
5.580000000000000515e-01	2.015821321692783386e-01
5.590000000000000524e-01	2.138068882923107594e-01
5.600000000000000533e-01	2.758957812329754233e-01
5.610000000000000542e-01	5.770108267897740006e-01
5.620000000000000551e-01	2.472641155763994902e-01
5.629999999999999449e-01	2.041557650372851640e-01
5.639999999999999458e-01	2.160588170518167317e-01
5.649999999999999467e-01	2.787911182094831020e-01
5.659999999999999476e-01	5.940611445403192192e-01
5.669999999999999485e-01	2.469424114678986371e-01
5.679999999999999494e-01	2.070511020137928426e-01
5.689999999999999503e-01	2.163805211603175849e-01
5.699999999999999512e-01	2.781477099924813956e-01
5.709999999999999520e-01	6.069293088803533465e-01
5.719999999999999529e-01	2.417951457318849862e-01
5.729999999999999538e-01	2.038340609287843108e-01
5.739999999999999547e-01	2.131634800753090531e-01
5.749999999999999556e-01	2.758957812329754233e-01
5.759999999999999565e-01	6.165804321353789419e-01
5.769999999999999574e-01	2.398649210808798671e-01
5.779999999999999583e-01	2.044774691457860172e-01
5.789999999999999591e-01	2.150937047263141721e-01
5.799999999999999600e-01	2.775043017754796892e-01
5.809999999999999609e-01	6.262315553904045373e-01
5.819999999999999618e-01	2.424385539488866925e-01
5.829999999999999627e-01	2.076945102307945490e-01
5.839999999999999636e-01	2.167022252688184381e-01
5.849999999999999645e-01	2.781477099924813956e-01
5.859999999999999654e-01	6.304137088009156287e-01
5.869999999999999662e-01	2.405083292978815734e-01
5.879999999999999671e-01	2.057642855797894299e-01
5.889999999999999680e-01	2.141285924008116126e-01
5.899999999999999689e-01	2.758957812329754233e-01
5.909999999999999698e-01	6.294485964754130691e-01
5.919999999999999707e-01	2.379346964298747480e-01
5.929999999999999716e-01	2.038340609287843108e-01
5.939999999999999725e-01	2.141285924008116126e-01
5.949999999999999734e-01	2.771825976669788361e-01
5.959999999999999742e-01	6.329873416689224541e-01
5.969999999999999751e-01	2.398649210808798671e-01
5.979999999999999760e-01	2.076945102307945490e-01
5.989999999999999769e-01	2.173456334858201444e-01
5.999999999999999778e-01	2.791128223179839551e-01
6.009999999999999787e-01	6.362043827539309859e-01
6.019999999999999796e-01	2.414734416233841330e-01
6.029999999999999805e-01	2.070511020137928426e-01
6.039999999999999813e-01	2.157371129433158785e-01
6.049999999999999822e-01	2.775043017754796892e-01
6.059999999999999831e-01	6.326656375604216009e-01
6.069999999999999840e-01	2.372912882128730416e-01
6.079999999999999849e-01	2.038340609287843108e-01
6.089999999999999858e-01	2.134851841838099062e-01
6.099999999999999867e-01	2.755740771244745702e-01
6.109999999999999876e-01	6.336307498859241605e-01
6.119999999999999885e-01	2.398649210808798671e-01
6.129999999999999893e-01	2.060859896882902831e-01
6.139999999999999902e-01	2.167022252688184381e-01
6.149999999999999911e-01	2.797562305349856615e-01
6.159999999999999920e-01	6.365260868624318391e-01
6.169999999999999929e-01	2.414734416233841330e-01
6.179999999999999938e-01	2.080162143392954022e-01
6.189999999999999947e-01	2.167022252688184381e-01
6.199999999999999956e-01	2.791128223179839551e-01
6.209999999999999964e-01	6.349175663199275732e-01
6.219999999999999973e-01	2.392215128638781607e-01
6.229999999999999982e-01	2.044774691457860172e-01
6.239999999999999991e-01	2.147720006178133190e-01
6.250000000000000000e-01	2.781477099924813956e-01
6.260000000000000009e-01	6.336307498859241605e-01
6.270000000000000018e-01	2.385781046468764544e-01
6.280000000000000027e-01	2.057642855797894299e-01
6.290000000000000036e-01	2.167022252688184381e-01
6.300000000000000044e-01	2.865120168135035783e-01
6.310000000000000053e-01	6.362043827539309859e-01
6.320000000000000062e-01	2.421168498403858393e-01
6.330000000000000071e-01	2.080162143392954022e-01
6.340000000000000080e-01	2.215277868963312358e-01
6.350000000000000089e-01	2.942329154175240546e-01
6.360000000000000098e-01	6.352392704284284264e-01
6.370000000000000107e-01	2.405083292978815734e-01
6.380000000000000115e-01	2.057642855797894299e-01
6.390000000000000124e-01	2.228146033303346485e-01
6.400000000000000133e-01	2.984150688280351460e-01
6.410000000000000142e-01	6.329873416689224541e-01
6.420000000000000151e-01	2.379346964298747480e-01
6.430000000000000160e-01	2.044774691457860172e-01
6.440000000000000169e-01	2.289269813918508589e-01
6.450000000000000178e-01	3.051708551065530628e-01
6.460000000000000187e-01	6.271966677159070969e-01
6.470000000000000195e-01	2.408300334063824266e-01
6.480000000000000204e-01	2.070511020137928426e-01
6.490000000000000213e-01	2.356827676703687757e-01
6.500000000000000222e-01	3.103181208425667137e-01
6.510000000000000231e-01	5.953479609743226320e-01
6.520000000000000240e-01	2.421168498403858393e-01
6.530000000000000249e-01	2.067293979052919894e-01
6.540000000000000258e-01	2.372912882128730416e-01
6.550000000000000266e-01	3.099964167340658605e-01
6.560000000000000275e-01	5.293986187316477299e-01
6.570000000000000284e-01	2.379346964298747480e-01
6.580000000000000293e-01	2.044774691457860172e-01
6.590000000000000302e-01	2.369695841043721884e-01
6.600000000000000311e-01	3.096747126255650073e-01
6.610000000000000320e-01	4.525113367999438196e-01
6.620000000000000329e-01	2.401866251893807203e-01
6.630000000000000338e-01	2.060859896882902831e-01
6.640000000000000346e-01	2.405083292978815734e-01
6.650000000000000355e-01	3.141785701445769519e-01
6.660000000000000364e-01	3.888139233167748898e-01
6.670000000000000373e-01	2.414734416233841330e-01
6.680000000000000382e-01	2.073728061222936958e-01
6.690000000000000391e-01	2.411517375148832798e-01
6.700000000000000400e-01	3.125700496020726860e-01
6.710000000000000409e-01	3.418451234756503254e-01
6.720000000000000417e-01	2.392215128638781607e-01
6.730000000000000426e-01	2.031906527117826045e-01
6.740000000000000435e-01	2.382564005383756012e-01
6.750000000000000444e-01	3.103181208425667137e-01
6.760000000000000453e-01	3.096747126255650073e-01
6.770000000000000462e-01	2.379346964298747480e-01
6.780000000000000471e-01	2.047991732542868704e-01
6.790000000000000480e-01	2.405083292978815734e-01
6.800000000000000488e-01	3.135351619275752455e-01
6.810000000000000497e-01	2.958414359600283206e-01
6.820000000000000506e-01	2.414734416233841330e-01
6.830000000000000515e-01	2.073728061222936958e-01
6.840000000000000524e-01	2.421168498403858393e-01
6.850000000000000533e-01	3.145002742530778050e-01
6.860000000000000542e-01	2.852252003795001656e-01
6.870000000000000551e-01	2.405083292978815734e-01
6.879999999999999449e-01	2.064076937967911363e-01
6.889999999999999458e-01	2.395432169723790139e-01
6.899999999999999467e-01	3.112832331680692732e-01
6.909999999999999476e-01	2.765391894499771297e-01
6.919999999999999485e-01	2.382564005383756012e-01
6.929999999999999494e-01	2.044774691457860172e-01
6.939999999999999503e-01	2.405083292978815734e-01
6.949999999999999512e-01	3.119266413850709796e-01
6.959999999999999520e-01	2.755740771244745702e-01
6.969999999999999529e-01	2.411517375148832798e-01
6.979999999999999538e-01	2.073728061222936958e-01
6.989999999999999547e-01	2.437253703828901052e-01
6.999999999999999556e-01	3.154653865785803646e-01
7.009999999999999565e-01	2.752523730159737170e-01
7.019999999999999574e-01	2.411517375148832798e-01
7.029999999999999583e-01	2.064076937967911363e-01
7.039999999999999591e-01	2.414734416233841330e-01
7.049999999999999600e-01	3.128917537105735391e-01
7.059999999999999609e-01	2.713919237139634788e-01
7.069999999999999618e-01	2.382564005383756012e-01
7.079999999999999627e-01	2.041557650372851640e-01
7.089999999999999636e-01	2.392215128638781607e-01
7.099999999999999645e-01	3.116049372765701264e-01
7.109999999999999654e-01	2.720353319309651852e-01
7.119999999999999662e-01	2.398649210808798671e-01
7.129999999999999671e-01	2.067293979052919894e-01
7.139999999999999680e-01	2.430819621658883989e-01
7.149999999999999689e-01	3.151436824700795114e-01
7.159999999999999698e-01	2.746089647989720106e-01
7.169999999999999707e-01	2.421168498403858393e-01
7.179999999999999716e-01	2.073728061222936958e-01
7.189999999999999725e-01	2.430819621658883989e-01
7.199999999999999734e-01	3.145002742530778050e-01
7.209999999999999742e-01	2.726787401479668915e-01
7.219999999999999751e-01	2.398649210808798671e-01
7.229999999999999760e-01	2.047991732542868704e-01
7.239999999999999769e-01	2.392215128638781607e-01
7.249999999999999778e-01	3.125700496020726860e-01
7.259999999999999787e-01	2.713919237139634788e-01
7.269999999999999796e-01	2.395432169723790139e-01
7.279999999999999805e-01	2.057642855797894299e-01
7.289999999999999813e-01	2.417951457318849862e-01
7.299999999999999822e-01	3.157870906870812178e-01
7.309999999999999831e-01	2.752523730159737170e-01
7.319999999999999840e-01	2.427602580573875457e-01
7.329999999999999849e-01	2.096247348817996681e-01
7.339999999999999858e-01	2.430819621658883989e-01
7.349999999999999867e-01	3.161087947955820709e-01
7.359999999999999876e-01	2.749306689074728638e-01
7.369999999999999885e-01	2.388998087553773075e-01
7.379999999999999893e-01	2.083379184477962554e-01
7.389999999999999902e-01	2.398649210808798671e-01
7.399999999999999911e-01	3.135351619275752455e-01
7.409999999999999920e-01	2.877988332475069910e-01
7.419999999999999929e-01	2.353610635618679225e-01
7.429999999999999938e-01	2.076945102307945490e-01
7.439999999999999947e-01	2.405083292978815734e-01
7.449999999999999956e-01	3.148219783615786582e-01
7.459999999999999964e-01	3.341242248716298491e-01
7.469999999999999973e-01	2.353610635618679225e-01
7.479999999999999982e-01	2.125200718583073467e-01
7.489999999999999991e-01	2.434036662743892521e-01
7.500000000000000000e-01	3.177173153380863369e-01
7.510000000000000009e-01	4.023254958738107234e-01
7.520000000000000018e-01	2.334308389108628035e-01
7.530000000000000027e-01	2.125200718583073467e-01
7.540000000000000036e-01	2.417951457318849862e-01
7.550000000000000044e-01	3.148219783615786582e-01
7.560000000000000053e-01	4.708484709844924510e-01
7.570000000000000062e-01	2.286052772833500057e-01
7.580000000000000071e-01	2.096247348817996681e-01
7.590000000000000080e-01	2.401866251893807203e-01
7.600000000000000089e-01	3.141785701445769519e-01
7.610000000000000098e-01	5.248947612126357853e-01
7.620000000000000107e-01	2.292486855003517121e-01
7.630000000000000115e-01	2.121983677498064935e-01
7.640000000000000124e-01	2.414734416233841330e-01
7.650000000000000133e-01	3.173956112295854837e-01
7.660000000000000142e-01	5.625341419072356075e-01
7.670000000000000151e-01	2.305355019343551248e-01
7.680000000000000160e-01	2.144502965093124658e-01
7.690000000000000169e-01	2.421168498403858393e-01
7.700000000000000178e-01	3.167522030125837773e-01
7.710000000000000187e-01	5.821580925257876515e-01
7.720000000000000195e-01	2.269967567408457398e-01
7.730000000000000204e-01	2.105898472073022276e-01
7.740000000000000213e-01	2.388998087553773075e-01
7.750000000000000222e-01	3.135351619275752455e-01
7.760000000000000231e-01	5.934177363233175129e-01
7.770000000000000240e-01	2.269967567408457398e-01
7.780000000000000249e-01	2.118766636413056403e-01
7.790000000000000258e-01	2.405083292978815734e-01
7.800000000000000266e-01	3.164304989040829241e-01
7.810000000000000275e-01	6.040339719038456678e-01
7.820000000000000284e-01	2.298920937173534185e-01
7.830000000000000293e-01	2.144502965093124658e-01
7.840000000000000302e-01	2.437253703828901052e-01
7.850000000000000311e-01	3.170739071210846305e-01
7.860000000000000320e-01	6.078944212058559060e-01
7.870000000000000329e-01	2.286052772833500057e-01
7.880000000000000338e-01	2.125200718583073467e-01
7.890000000000000346e-01	2.405083292978815734e-01
7.900000000000000355e-01	3.138568660360760987e-01
7.910000000000000364e-01	6.072510129888541996e-01
7.920000000000000373e-01	2.257099403068423271e-01
7.930000000000000382e-01	2.115549595328047872e-01
7.940000000000000391e-01	2.411517375148832798e-01
7.950000000000000400e-01	3.154653865785803646e-01
7.960000000000000409e-01	6.101463499653618783e-01
7.970000000000000417e-01	2.286052772833500057e-01
7.980000000000000426e-01	2.144502965093124658e-01
7.990000000000000435e-01	2.427602580573875457e-01
8.000000000000000444e-01	3.177173153380863369e-01
8.010000000000000453e-01	6.127199828333687037e-01
8.020000000000000462e-01	2.286052772833500057e-01
8.030000000000000471e-01	2.138068882923107594e-01
8.040000000000000480e-01	2.421168498403858393e-01
8.050000000000000488e-01	3.154653865785803646e-01
8.060000000000000497e-01	6.095029417483601719e-01
8.070000000000000506e-01	2.257099403068423271e-01
8.080000000000000515e-01	2.099464389903005213e-01
8.090000000000000524e-01	2.392215128638781607e-01
8.100000000000000533e-01	3.164304989040829241e-01
8.110000000000000542e-01	6.104680540738627315e-01
8.120000000000000551e-01	2.279618690663482994e-01
8.129999999999999449e-01	2.128417759668081999e-01
8.139999999999999458e-01	2.421168498403858393e-01
8.149999999999999467e-01	3.238296933996025473e-01
8.159999999999999476e-01	6.127199828333687037e-01
8.169999999999999485e-01	2.295703896088525653e-01
8.179999999999999494e-01	2.141285924008116126e-01
8.189999999999999503e-01	2.427602580573875457e-01
8.199999999999999512e-01	3.286552550271153450e-01
8.209999999999999520e-01	6.111114622908644378e-01
8.219999999999999529e-01	2.263533485238440335e-01
8.229999999999999538e-01	2.105898472073022276e-01
8.239999999999999547e-01	2.411517375148832798e-01
8.249999999999999556e-01	3.315505920036230236e-01
8.259999999999999565e-01	6.095029417483601719e-01
8.269999999999999574e-01	2.266750526323448867e-01
8.279999999999999583e-01	2.115549595328047872e-01
8.289999999999999591e-01	2.453338909253943712e-01
8.299999999999999600e-01	3.383063782821409404e-01
8.309999999999999609e-01	6.043556760123465210e-01
8.319999999999999618e-01	2.295703896088525653e-01
8.329999999999999627e-01	2.144502965093124658e-01
8.339999999999999636e-01	2.482292279019020498e-01
8.349999999999999645e-01	3.412017152586486191e-01
8.359999999999999654e-01	5.532047227607108653e-01
8.369999999999999662e-01	2.276401649578474462e-01
8.379999999999999671e-01	2.121983677498064935e-01
8.389999999999999680e-01	2.462990032508969307e-01
8.399999999999999689e-01	3.395931947161443532e-01
8.409999999999999698e-01	4.499377039319369942e-01
8.419999999999999707e-01	2.250665320898406208e-01
8.429999999999999716e-01	2.109115513158030808e-01
8.439999999999999725e-01	2.469424114678986371e-01
8.449999999999999734e-01	3.428102358011528850e-01
8.459999999999999742e-01	3.209343564230948687e-01
8.469999999999999751e-01	2.282835731748491526e-01
8.479999999999999760e-01	2.138068882923107594e-01
8.489999999999999769e-01	2.511245648784097284e-01
8.499999999999999778e-01	3.463489809946622699e-01
8.509999999999999787e-01	2.076945102307945490e-01
8.519999999999999796e-01	2.286052772833500057e-01
8.529999999999999805e-01	2.134851841838099062e-01
8.539999999999999813e-01	2.488726361189037561e-01
8.549999999999999822e-01	3.437753481266554445e-01
8.559999999999999831e-01	1.234080338035710156e-01
8.569999999999999840e-01	2.250665320898406208e-01
8.579999999999999849e-01	2.105898472073022276e-01
8.589999999999999858e-01	2.472641155763994902e-01
8.599999999999999867e-01	3.434536440181545913e-01
8.609999999999999876e-01	7.257878466043621302e-02
8.619999999999999885e-01	2.263533485238440335e-01
8.629999999999999893e-01	2.128417759668081999e-01
8.639999999999999902e-01	2.501594525529071689e-01
8.649999999999999911e-01	3.466706851031631231e-01
8.659999999999999920e-01	4.362541489535942674e-02
8.669999999999999929e-01	2.295703896088525653e-01
8.679999999999999938e-01	2.138068882923107594e-01
8.689999999999999947e-01	2.495160443359054625e-01
8.699999999999999956e-01	3.450621645606588572e-01
8.709999999999999964e-01	2.400146427680738270e-02
8.719999999999999973e-01	2.260316444153431803e-01
8.729999999999999982e-01	2.109115513158030808e-01
8.739999999999999991e-01	2.466207073593977839e-01
8.750000000000000000e-01	3.428102358011528850e-01
8.760000000000000009e-01	1.177670815377496183e-02
8.770000000000000018e-01	2.263533485238440335e-01
8.780000000000000027e-01	2.112332554243039340e-01
8.790000000000000036e-01	2.488726361189037561e-01
8.800000000000000044e-01	3.450621645606588572e-01
8.810000000000000053e-01	8.881371177267283201e-03
8.820000000000000062e-01	2.286052772833500057e-01
8.830000000000000071e-01	2.144502965093124658e-01
8.840000000000000080e-01	2.501594525529071689e-01
8.850000000000000089e-01	3.457055727776605636e-01
8.860000000000000098e-01	5.342625983757898211e-03
8.870000000000000107e-01	2.276401649578474462e-01
8.880000000000000115e-01	2.128417759668081999e-01
8.890000000000000124e-01	2.475858196849003434e-01
8.900000000000000133e-01	3.421668275841511786e-01
8.910000000000000142e-01	8.387684647459536791e-04
8.920000000000000151e-01	2.260316444153431803e-01
8.930000000000000160e-01	2.112332554243039340e-01
8.940000000000000169e-01	2.479075237934011966e-01
8.950000000000000178e-01	3.440970522351562977e-01
8.960000000000000187e-01	2.447289007250219584e-03
8.970000000000000195e-01	2.286052772833500057e-01
8.980000000000000204e-01	2.144502965093124658e-01
8.990000000000000213e-01	2.504811566614080220e-01
9.000000000000000222e-01	3.463489809946622699e-01
9.010000000000000231e-01	3.734105441253632307e-03
9.020000000000000240e-01	2.282835731748491526e-01
9.030000000000000249e-01	2.134851841838099062e-01
9.040000000000000258e-01	2.491943402274046093e-01
9.050000000000000266e-01	3.408800111501477659e-01
9.060000000000000275e-01	8.387684647459536791e-04
9.070000000000000284e-01	2.253882361983414739e-01
9.080000000000000293e-01	2.099464389903005213e-01
9.090000000000000302e-01	2.469424114678986371e-01
9.100000000000000311e-01	3.392714906076435000e-01
9.110000000000000320e-01	1.482176681747660041e-03
9.120000000000000329e-01	2.276401649578474462e-01
9.130000000000000338e-01	2.134851841838099062e-01
9.140000000000000346e-01	2.504811566614080220e-01
9.150000000000000355e-01	3.402366029331460595e-01
9.160000000000000364e-01	4.377513658255338669e-03
9.170000000000000373e-01	2.295703896088525653e-01
9.180000000000000382e-01	2.157371129433158785e-01
9.190000000000000391e-01	2.501594525529071689e-01
9.200000000000000400e-01	3.363761536311358213e-01
9.210000000000000409e-01	2.768993115751072764e-03
9.220000000000000417e-01	2.260316444153431803e-01
9.230000000000000426e-01	2.125200718583073467e-01
9.240000000000000435e-01	2.469424114678986371e-01
9.250000000000000444e-01	3.318722961121238768e-01
9.260000000000000453e-01	1.953602477442473173e-04
9.270000000000000462e-01	2.241014197643380612e-01
9.280000000000000471e-01	2.163805211603175849e-01
9.290000000000000480e-01	2.488726361189037561e-01
9.300000000000000488e-01	3.347676330886315554e-01
9.310000000000000497e-01	2.125584898749366403e-03
9.320000000000000506e-01	2.247448279813397676e-01
9.330000000000000515e-01	2.205626745708286762e-01
9.340000000000000524e-01	2.508028607699088752e-01
9.350000000000000533e-01	3.338025207631289959e-01
9.360000000000000542e-01	-3.343384945765137672e-03
9.370000000000000551e-01	2.221711951133329421e-01
9.379999999999999449e-01	2.189541540283244103e-01
9.389999999999999458e-01	2.469424114678986371e-01
9.399999999999999467e-01	3.312288878951221704e-01
9.409999999999999476e-01	-9.134058898780494928e-03
9.419999999999999485e-01	2.192758581368252635e-01
9.429999999999999494e-01	2.189541540283244103e-01
9.439999999999999503e-01	2.479075237934011966e-01
9.449999999999999512e-01	3.315505920036230236e-01
9.459999999999999520e-01	-1.042087533278390765e-02
9.469999999999999529e-01	2.208843786793295294e-01
9.479999999999999538e-01	2.231363074388355017e-01
9.489999999999999547e-01	2.508028607699088752e-01
9.499999999999999556e-01	3.347676330886315554e-01
9.509999999999999565e-01	-1.042087533278390765e-02
9.519999999999999574e-01	2.202409704623278230e-01
9.529999999999999583e-01	2.221711951133329421e-01
9.539999999999999591e-01	2.488726361189037561e-01
9.549999999999999600e-01	3.315505920036230236e-01
9.559999999999999609e-01	-1.556814106879755855e-02
9.569999999999999618e-01	2.173456334858201444e-01
9.579999999999999627e-01	2.192758581368252635e-01
9.589999999999999636e-01	2.475858196849003434e-01
9.599999999999999645e-01	3.305854796781204641e-01
9.609999999999999654e-01	-1.492473285179585218e-02
9.619999999999999662e-01	2.183107458113227040e-01
9.629999999999999671e-01	2.215277868963312358e-01
9.639999999999999680e-01	2.504811566614080220e-01
9.649999999999999689e-01	3.347676330886315554e-01
9.659999999999999698e-01	-1.299450820079073310e-02
9.669999999999999707e-01	2.205626745708286762e-01
9.679999999999999716e-01	2.231363074388355017e-01
9.689999999999999725e-01	2.504811566614080220e-01
9.699999999999999734e-01	3.321940002206247300e-01
9.709999999999999742e-01	-1.460302874329499900e-02
9.719999999999999751e-01	2.173456334858201444e-01
9.729999999999999760e-01	2.195975622453261167e-01
9.739999999999999769e-01	2.469424114678986371e-01
9.749999999999999778e-01	3.296203673526179045e-01
9.759999999999999787e-01	-1.685495750280097127e-02
9.769999999999999796e-01	2.176673375943209976e-01
9.779999999999999805e-01	2.208843786793295294e-01
9.789999999999999813e-01	2.488726361189037561e-01
9.799999999999999822e-01	3.331591125461272895e-01
9.809999999999999831e-01	-1.299450820079073310e-02
9.819999999999999840e-01	2.205626745708286762e-01
9.829999999999999849e-01	2.234580115473363549e-01
9.839999999999999858e-01	2.501594525529071689e-01
9.849999999999999867e-01	3.338025207631289959e-01
9.859999999999999876e-01	-1.395962052629329264e-02
9.869999999999999885e-01	2.186324499198235571e-01
9.879999999999999893e-01	2.208843786793295294e-01
9.889999999999999902e-01	2.472641155763994902e-01
9.899999999999999911e-01	3.292986632441170514e-01
9.909999999999999920e-01	-1.685495750280097127e-02
9.919999999999999929e-01	2.170239293773192912e-01
9.929999999999999938e-01	2.202409704623278230e-01
9.939999999999999947e-01	2.479075237934011966e-01
9.949999999999999956e-01	3.273684385931119323e-01
9.959999999999999964e-01	-1.428132463479414582e-02
9.969999999999999973e-01	2.192758581368252635e-01
9.979999999999999982e-01	2.234580115473363549e-01
9.989999999999999991e-01	2.508028607699088752e-01
